time (s)	magX	magY	magZ
1874.024153	549.321472	207.216248	-529.118652
1874.027503	546.106934	207.566925	-519.299866
1874.030816	544.295166	207.625366	-509.013458
1874.034153	542.834045	207.566925	-500.363525
1874.037439	540.788452	207.625366	-491.888947
1874.040768	536.463501	207.157806	-483.239014
1874.044083	533.774963	207.099350	-474.589142
1874.047462	531.495605	207.742249	-466.231415
1874.050739	529.742249	207.450027	-459.042664
1874.054088	527.872009	207.917603	-450.509613
1874.057854	524.248413	208.209808	-443.320862
1874.061148	520.449402	207.508469	-436.424316
1874.064490	519.748108	208.268265	-429.819977
1874.067842	515.540039	208.735825	-423.858551
1874.071222	511.974915	207.976028	-416.845123
1874.074509	508.234375	209.086502	-410.474579
1874.077901	506.714783	209.904724	-405.565155
1874.081251	503.792480	209.378723	-399.077698
1874.084606	502.272949	209.261841	-393.876068
1874.087908	500.285767	209.612503	-389.142029
1874.091320	496.954407	209.554062	-384.057281
1874.094655	494.149048	208.735825	-380.258301
1874.098043	492.395691	209.612503	-375.465790
1874.101392	490.408569	208.969604	-372.017548
1874.104702	488.830505	208.911163	-366.874329
1874.108010	487.369385	207.683807	-362.198700
1874.111327	483.512024	207.333130	-359.101074
1874.115090	482.810608	207.157806	-354.893036
1874.118040	482.284607	205.813568	-351.561646
1874.121744	479.888367	206.105789	-347.061340
1874.125083	477.141479	205.053772	-344.139069
1874.128416	475.329590	204.235535	-340.515472
1874.131708	474.336060	204.118652	-336.950317
1874.135077	472.290466	202.715958	-332.859131
1874.138366	469.601990	201.956161	-329.235504
1874.141689	468.725342	201.430161	-325.787231
1874.144969	465.569214	200.261246	-322.046753
1874.148714	464.751038	199.092346	-318.072479
1874.152273	463.698975	198.566330	-314.682648
1874.155568	462.939270	198.098770	-311.234375
1874.158905	460.484558	197.397430	-308.428986
1874.162237	457.796021	196.871429	-303.753357
1874.165573	456.510254	196.170074	-301.181763
1874.168901	454.990662	196.053177	-297.207458
1874.172231	453.237305	195.585617	-294.811218
1874.175563	451.016357	195.468735	-291.362946
1874.178902	448.386292	194.942719	-288.265350
1874.182241	447.158997	194.592041	-284.641724
1874.185580	445.522522	194.241379	-282.829926
1874.188908	444.002930	194.416718	-279.440094
1874.192235	443.476868	194.124481	-277.219177
1874.195583	441.314453	194.533615	-274.589111
1874.198900	438.976624	194.241379	-272.309753
1874.202236	438.567505	193.773819	-270.731720
1874.205568	436.112793	194.299835	-269.621277
1874.208900	436.346619	194.299835	-267.751007
1874.212655	433.891846	194.066040	-266.932800
1874.215997	432.489197	194.533615	-265.296295
1874.219333	432.021606	195.059616	-263.776733
1874.222677	432.080078	195.118057	-263.835175
1874.226011	431.729370	195.585617	-263.426056
1874.229345	430.852722	195.176514	-261.906464
1874.232751	430.209839	195.994736	-262.315582
1874.235985	430.092957	195.118057	-262.374023
1874.239330	429.391602	195.527176	-261.848022
1874.242646	428.690247	195.936295	-261.731140
1874.245990	428.281128	195.118057	-261.789612
1874.249322	428.339600	195.644073	-262.315582
1874.252647	428.807129	195.936295	-262.023376
1874.256434	428.456482	195.468735	-262.374023
1874.259855	428.164246	195.585617	-262.315582
1874.263159	428.924011	195.293396	-262.666260
1874.266478	429.800720	195.351837	-262.958496
1874.269740	429.391602	194.767395	-262.315582
1874.273067	429.157837	194.299835	-261.789612
1874.276405	429.333130	194.299835	-261.322021
1874.279781	428.807129	193.715378	-261.789612
1874.283178	429.216248	193.715378	-262.198700
1874.286475	426.878418	193.656921	-261.672699
1874.289803	428.807129	193.540039	-260.796021
1874.293084	427.346008	193.598480	-261.088257
1874.296406	429.333130	193.072479	-260.912903
1874.299785	429.216248	193.540039	-260.211578
1874.303568	428.690247	193.656921	-260.328461
1874.306918	428.924011	193.598480	-260.094666
1874.310242	427.638245	193.715378	-260.562256
1874.313598	428.748657	193.890701	-260.153107
1874.316976	427.988892	194.942719	-260.445343
1874.320287	428.807129	195.118057	-260.737579
1874.323681	429.683838	194.592041	-260.971344
1874.327002	429.274719	195.994736	-261.906464
1874.330319	428.982483	196.871429	-263.250732
1874.333659	431.028076	197.455872	-264.185852
1874.337031	430.443604	198.332550	-265.004089
1874.340330	431.846313	199.384567	-266.640564
1874.343753	433.365845	199.793686	-268.452362
1874.347051	432.606079	201.137924	-269.738159
1874.350788	432.781433	201.839264	-271.666840
1874.354128	434.476318	202.306839	-273.420227
1874.357425	436.463501	203.417297	-276.517822
1874.360747	436.346619	204.293976	-278.680298
1874.364056	437.807739	204.819992	-280.959656
1874.367402	439.385742	205.988892	-283.881927
1874.370696	440.028625	206.164230	-286.102844
1874.374061	442.541748	207.450027	-289.434235
1874.377448	443.944458	208.151382	-292.999390
1874.380818	444.470459	208.560486	-295.687897
1874.384100	446.457642	209.320282	-299.077728
1874.387851	448.970764	209.437164	-302.701324
1874.391190	450.139709	210.489197	-305.857391
1874.394629	452.126831	210.430740	-310.182343
1874.397949	454.347717	211.365860	-313.046143
1874.401259	455.984253	211.248978	-316.903564
1874.404562	457.679138	212.300995	-320.351837
1874.407868	458.555847	213.177673	-323.098755
1874.411297	460.426086	213.119232	-326.430145
1874.414668	462.296326	213.879013	-329.995300
1874.417965	463.991211	214.288147	-332.917572
1874.421346	467.205750	214.697250	-336.248962
1874.424666	467.556396	215.281708	-339.755676
1874.427975	468.725342	215.924606	-343.145508
1874.431345	471.179993	216.392166	-345.483337
1874.434652	474.277649	217.151947	-350.509613
1874.438056	474.043823	217.677963	-353.081238
1874.441407	476.673889	218.379303	-357.055511
1874.444740	478.602600	219.022202	-360.328430
1874.448051	478.719482	220.015778	-364.828735
1874.451866	481.700134	221.710709	-368.686127
1874.455537	482.693726	222.470474	-373.011108
1874.458874	484.564026	223.171829	-377.277588
1874.462222	487.720032	224.691422	-381.134979
1874.465534	488.246033	225.217422	-385.635284
1874.468874	490.992981	226.152542	-391.187592
1874.472204	492.746338	228.198120	-396.623016
1874.475533	494.499695	229.425476	-403.052002
1874.478869	496.837524	230.419037	-409.773224
1874.482206	498.240234	231.997086	-415.442413
1874.485543	500.402649	232.464645	-421.988312
1874.488875	501.980713	234.334900	-428.534180
1874.492206	505.370544	235.094696	-436.833405
1874.495538	506.831665	236.731155	-443.379303
1874.498870	508.935730	236.964935	-452.146088
1874.502204	512.091736	238.016937	-459.802429
1874.505541	514.195801	239.478088	-468.803009
1874.508867	518.579163	240.588547	-477.102264
1874.512203	519.806580	240.997665	-485.459930
1874.515530	522.378113	241.757446	-494.635864
1874.518866	525.358826	241.640564	-503.227356
1874.522198	528.105835	242.634125	-511.468170
1874.525532	529.917603	243.043259	-521.345398
1874.528867	530.969604	243.101700	-531.456482
1874.532195	530.969604	242.809464	-539.931030
1874.535984	536.171204	243.510818	-549.223877
1874.539327	537.690796	243.218582	-558.516663
1874.542653	537.807739	243.510818	-568.277039
1874.545963	539.385742	243.160126	-577.336060
1874.549329	543.652222	243.803055	-585.810669
1874.552623	543.886047	243.803055	-595.337280
1874.555956	545.464050	243.277023	-605.682068
1874.559275	546.165405	243.627686	-614.156616
1874.562622	548.269470	244.036819	-623.449463
1874.565948	548.386353	244.036819	-632.625427
1874.569284	550.607239	244.738174	-641.509094
1874.572648	551.016357	243.744583	-651.561646
1874.575976	552.243774	243.978378	-661.672729
1874.579309	552.243774	243.510818	-671.082397
1874.583047	553.003540	244.270615	-680.433655
1874.586418	553.821777	243.686157	-691.596741
1874.589708	554.640015	244.329056	-701.240234
1874.593077	554.815308	244.153717	-714.331970
1874.596429	554.990662	244.212158	-724.852173
1874.599792	554.055542	244.036819	-735.898315
1874.603117	552.886597	244.153717	-747.295166
1874.606403	554.698486	243.686157	-761.497375
1874.609701	553.061951	242.458801	-772.835815
1874.613037	552.243774	242.692566	-787.271790
1874.616398	550.081238	241.640564	-800.363525
1874.619725	549.847473	240.763885	-813.455322
1874.623131	549.379944	239.711853	-827.190002
1874.626901	547.451233	238.542969	-843.379333
1874.630246	544.236694	236.088257	-856.763306
1874.633606	541.723572	234.802460	-872.777344
1874.636900	539.736389	232.172424	-890.252441
1874.640262	536.931030	229.951477	-904.162476
1874.643603	532.606079	227.087662	-920.819458
1874.646959	529.450012	224.749847	-936.658142
1874.650295	525.475769	221.710709	-951.327881
1874.653681	521.326111	218.905319	-966.640564
1874.656995	516.475159	214.405029	-980.842834
1874.660373	514.137329	211.190536	-997.908875
1874.663695	506.539490	207.333130	-1013.046204
1874.667000	502.389832	202.891296	-1029.995239
1874.670319	495.259521	198.332550	-1043.262451
1874.673705	490.057861	194.299835	-1058.692017
1874.677020	485.440674	190.500885	-1072.952637
1874.680797	479.888367	185.708359	-1086.453491
1874.684130	472.699585	181.032730	-1100.714233
1874.687440	465.452393	176.473984	-1113.981201
1874.690738	458.964966	171.213913	-1127.891235
1874.694032	453.529541	166.888947	-1142.210327
1874.697469	444.762756	161.628860	-1155.828125
1874.700772	438.625916	157.070145	-1168.569214
1874.704096	430.502014	152.043839	-1183.239014
1874.707440	421.501465	147.017532	-1191.771973
1874.710740	414.312683	141.640564	-1205.506714
1874.714100	405.195190	136.848053	-1218.598511
1874.717440	396.194641	131.354187	-1231.164185
1874.721146	386.609558	126.210991	-1241.918091
1874.724466	376.557007	120.483337	-1252.730591
1874.727803	366.270569	114.931038	-1264.828735
1874.731228	355.049072	108.385155	-1280.550537
1874.734545	344.178223	102.423729	-1289.551025
1874.737860	332.664490	96.403854	-1302.876709
1874.741232	320.215637	89.565750	-1311.584961
1874.744534	307.649902	82.318527	-1324.501465
1874.747905	294.207458	75.012863	-1335.722900
1874.751201	280.472839	67.181183	-1347.645752
1874.754578	267.848633	59.291061	-1358.165894
1874.757949	252.828171	50.232029	-1369.621216
1874.761258	238.392166	42.926361	-1379.323242
1874.764567	222.670364	33.282875	-1388.908203
1874.767953	207.065460	24.282291	-1396.038574
1874.771289	191.752777	14.054356	-1406.734009
1874.774650	175.504974	4.410872	-1415.500854
1874.777996	158.964935	-5.583284	-1423.040283
1874.781345	142.366455	-15.402102	-1427.657471
1874.785157	126.352425	-25.513147	-1436.249023
1874.788844	109.520164	-35.974869	-1439.814087
1874.792194	93.506134	-46.611923	-1445.717041
1874.795507	76.966103	-56.489189	-1447.645752
1874.798839	61.068966	-67.243134	-1451.736938
1874.802174	44.470486	-77.295731	-1454.074707
1874.805502	27.287552	-86.822327	-1458.224365
1874.808830	12.150206	-96.348915	-1458.165894
1874.812170	-3.513149	-105.992401	-1460.737549
1874.815504	-18.825832	-116.454117	-1458.750488
1874.818848	-33.904732	-125.220932	-1456.938599
1874.822171	-48.632965	-134.805969	-1455.009888
1874.825500	-62.835182	-142.286972	-1453.431885
1874.828837	-77.680298	-150.469315	-1451.269409
1874.832175	-91.590294	-159.645233	-1449.282227
1874.835532	-105.909409	-167.827576	-1448.814697
1874.838831	-119.527176	-177.061951	-1444.197510
1874.842173	-133.261826	-184.659836	-1438.352905
1874.845500	-146.879593	-190.562820	-1436.891846
1874.848837	-160.029800	-199.738739	-1433.852661
1874.852168	-173.706024	-206.284637	-1421.345337
1874.855499	-186.330215	-212.772064	-1419.475098
1874.858828	-199.597305	-221.012848	-1414.156616
1874.862167	-212.396835	-227.675629	-1405.331299
1874.865503	-225.196396	-235.156631	-1397.207397
1874.869255	-238.054337	-241.468735	-1388.615967
1874.872607	-250.853897	-248.423721	-1379.264771
1874.875946	-264.997681	-256.080078	-1374.121582
1874.879308	-278.206299	-262.625946	-1361.205078
1874.882593	-290.187622	-268.470459	-1350.743408
1874.885921	-302.344238	-276.302155	-1340.983032
1874.889266	-313.215088	-282.497375	-1329.410889
1874.892590	-327.358887	-289.510803	-1317.955444
1874.895923	-338.697266	-295.822876	-1303.987183
1874.899248	-351.496765	-302.777893	-1291.655151
1874.902603	-361.607849	-308.680878	-1280.083008
1874.905939	-373.764465	-315.518982	-1264.419556
1874.909279	-384.401550	-322.941559	-1251.853882
1874.913138	-393.694336	-327.032715	-1238.469849
1874.916354	-403.630066	-333.461700	-1223.975342
1874.919683	-412.455322	-339.656921	-1208.779663
1874.923029	-421.631226	-344.507874	-1194.694336
1874.926357	-430.573364	-349.358826	-1179.498535
1874.929697	-438.580322	-353.450012	-1164.302734
1874.933093	-445.535339	-358.184082	-1151.094116
1874.936416	-453.250122	-361.924591	-1136.716431
1874.939773	-460.438965	-365.781982	-1121.403809
1874.943005	-465.582092	-368.528931	-1106.383301
1874.946348	-471.192871	-372.094086	-1093.174683
1874.950115	-474.699585	-374.490326	-1079.323242
1874.953073	-480.368774	-377.061951	-1063.542969
1874.956442	-484.343079	-379.750397	-1050.567993
1874.960180	-488.258911	-381.971375	-1039.814087
1874.963491	-491.940918	-384.776733	-1025.085815
1874.966848	-496.032166	-386.004089	-1013.806030
1874.970263	-500.590881	-387.406799	-1001.707825
1874.973589	-503.045593	-388.166565	-989.901794
1874.976954	-504.682007	-390.621246	-977.043884
1874.980270	-507.370544	-389.861450	-962.900024
1874.983663	-509.123901	-391.264160	-951.094116
1874.987004	-512.805969	-390.679687	-940.515503
1874.990298	-514.851501	-392.257751	-926.547119
1874.993647	-517.656921	-394.186401	-914.916504
1874.996992	-518.124512	-393.835754	-903.402649
1875.000308	-519.702515	-392.842194	-888.674500
1875.003610	-521.923401	-394.946198	-876.225647
1875.006952	-522.858521	-394.069550	-863.718262
1875.010322	-525.313232	-394.478668	-849.983643
1875.013700	-526.189941	-395.530670	-838.703674
1875.016995	-526.423706	-394.770874	-826.313293
1875.020741	-529.521301	-395.063110	-812.461731
1875.024056	-531.566895	-395.004669	-799.720642
1875.027356	-530.924011	-393.894196	-786.628906
1875.030707	-531.274658	-394.653992	-772.309814
1875.034076	-530.281128	-394.127991	-761.848083
1875.037407	-531.859131	-393.777344	-747.704285
1875.040696	-530.865601	-394.186401	-737.067261
1875.044079	-532.034424	-393.134399	-723.624817
1875.047366	-531.391602	-392.199280	-711.935730
1875.050777	-531.099304	-392.316162	-700.305115
1875.054090	-531.040894	-392.082397	-688.382263
1875.057398	-530.748657	-389.803040	-676.926941
1875.060771	-527.534180	-389.335449	-666.932800
1875.064091	-527.884827	-389.569244	-655.594421
1875.067915	-528.644592	-388.458771	-644.255981
1875.070841	-525.722351	-388.926331	-635.898315
1875.074180	-524.553467	-386.939209	-625.670410
1875.077930	-523.968994	-385.185822	-617.546448
1875.081231	-522.916992	-383.081818	-609.364136
1875.084539	-521.864990	-383.081818	-600.538879
1875.087911	-520.579224	-382.906494	-592.765625
1875.091247	-518.592041	-381.562256	-587.564026
1875.094571	-519.234924	-381.153107	-578.680359
1875.097877	-516.604919	-378.172394	-571.199341
1875.101190	-513.974854	-377.880188	-566.114563
1875.104557	-514.383972	-377.997070	-560.211548
1875.107905	-512.805969	-376.243683	-553.431885
1875.111276	-510.526550	-375.191711	-548.113403
1875.114623	-510.585022	-374.315002	-542.736450
1875.117976	-509.532959	-373.146088	-536.132080
1875.121769	-507.604309	-371.626526	-531.047363
1875.125477	-507.954956	-369.171814	-524.442993
1875.128824	-504.039124	-370.516083	-518.832275
1875.132141	-504.214478	-368.879578	-513.572144
1875.135468	-501.526001	-367.593811	-508.779663
1875.138802	-502.694885	-367.184662	-503.227356
1875.142136	-499.538879	-365.665100	-496.564575
1875.145465	-498.311462	-363.853302	-491.187592
1875.148801	-498.311462	-364.203949	-485.518402
1875.152141	-495.155457	-361.924591	-479.440094
1875.155466	-493.109863	-361.047913	-473.712433
1875.158841	-492.642334	-360.229675	-468.510803
1875.162136	-490.421387	-358.417877	-462.432465
1875.165465	-490.655151	-358.242554	-456.471039
1875.168802	-487.382202	-354.852722	-450.392761
1875.172146	-485.921082	-355.320282	-445.600220
1875.175468	-485.395081	-355.261810	-440.223236
1875.178808	-482.355957	-353.683777	-434.904724
1875.182140	-483.057251	-352.398010	-429.703064
1875.185468	-481.245483	-351.930420	-424.852112
1875.188796	-478.089417	-351.170654	-420.527161
1875.192134	-477.037415	-350.819977	-416.494415
1875.195472	-475.751587	-349.592621	-412.227936
1875.198800	-474.465820	-347.722382	-408.779663
1875.202146	-474.933350	-346.202789	-404.571594
1875.205461	-474.407349	-346.845673	-401.532410
1875.208792	-471.718872	-346.611908	-398.960846
1875.212575	-469.907043	-346.261261	-397.324341
1875.215913	-468.796631	-344.858551	-394.811218
1875.219223	-468.153687	-345.033905	-393.057861
1875.222559	-466.984802	-344.741669	-391.596710
1875.225889	-467.803040	-344.741669	-390.135590
1875.229224	-467.510803	-344.449432	-388.966675
1875.232578	-464.880798	-343.280518	-387.797760
1875.235896	-465.991211	-343.455872	-386.628845
1875.239222	-463.594971	-343.689636	-385.518402
1875.242571	-463.770325	-342.929840	-385.752197
1875.245914	-462.776733	-341.936279	-385.284607
1875.249265	-461.783142	-341.468719	-384.583252
1875.252581	-462.835205	-342.637604	-384.407928
1875.256313	-462.776733	-343.397400	-384.291046
1875.259634	-461.023376	-342.929840	-384.758606
1875.262993	-461.724731	-343.514313	-384.291046
1875.266325	-461.257141	-342.929840	-384.057281
1875.269837	-461.958496	-342.754517	-382.596130
1875.273042	-460.322021	-343.631195	-382.245453
1875.276400	-460.964966	-342.286957	-381.544128
1875.279639	-459.796021	-342.403839	-381.193451
1875.282969	-459.971375	-343.105194	-380.550537
1875.286306	-458.451782	-343.338989	-379.556976
1875.289674	-460.088257	-343.923431	-379.264740
1875.293014	-458.919373	-342.579193	-378.037384
1875.296372	-457.691956	-342.345398	-377.336060
1875.299712	-458.568665	-343.455872	-376.985352
1875.303451	-456.055542	-341.936279	-376.342468
1875.306786	-458.860901	-344.507874	-374.881348
1875.310083	-457.165955	-342.053162	-374.472229
1875.313521	-457.282898	-344.215637	-374.238464
1875.316823	-458.218018	-343.981873	-374.589111
1875.320172	-457.224426	-343.455872	-374.004669
1875.323492	-457.750427	-345.442993	-374.706024
1875.326846	-456.055542	-344.741669	-374.939789
1875.330232	-455.880188	-343.748077	-375.056671
1875.333527	-457.165955	-345.442993	-375.641144
1875.336868	-456.932190	-346.436584	-377.219147
1875.340170	-458.451782	-347.371704	-379.030975
1875.343472	-459.971375	-348.365265	-379.849213
1875.346867	-459.270020	-348.832825	-382.303925
1875.350640	-459.562256	-349.358826	-384.875488
1875.353969	-460.964966	-350.644653	-387.154877
1875.357296	-460.672668	-351.053741	-389.960236
1875.360624	-461.140259	-352.222656	-393.408508
1875.364010	-462.776733	-352.514893	-396.506134
1875.367374	-463.302734	-353.800690	-399.311493
1875.370695	-465.523682	-354.151367	-403.578003
1875.374002	-466.283447	-355.670929	-408.370514
1875.377304	-466.867920	-357.248962	-411.935699
1875.380729	-468.270630	-358.125641	-414.857971
1875.384051	-470.140869	-359.645233	-419.650482
1875.387443	-469.264221	-361.340149	-424.209229
1875.390794	-469.147278	-363.210388	-428.534180
1875.394106	-472.011108	-363.970154	-431.865570
1875.397410	-473.121582	-366.658661	-437.125641
1875.400706	-473.296875	-366.366455	-440.924591
1875.404512	-474.699585	-368.762695	-444.840424
1875.407439	-476.978943	-370.749847	-449.048492
1875.411205	-475.985413	-371.217407	-452.672119
1875.414553	-476.569885	-373.029205	-456.938629
1875.417923	-479.433655	-374.256561	-461.088257
1875.421292	-478.089417	-375.250122	-465.413208
1875.424631	-481.654541	-376.535919	-468.510803
1875.428001	-481.946838	-378.523071	-473.654022
1875.431334	-482.239014	-379.691986	-476.693146
1875.434646	-483.933960	-381.503784	-481.076569
1875.437978	-483.407959	-381.503784	-485.167725
1875.441268	-483.641724	-383.841614	-489.434235
1875.444695	-484.401489	-385.244293	-494.518982
1875.448027	-486.388611	-385.653412	-499.194611
